lat,longitude,magnitude of bed shear stress (N/m^2)
25.83090000000,89.73970000000,9.87E-26
25.82810000000,89.73940000000,5.26E-26
25.82550000000,89.73920000000,6.32E-27
25.82310000000,89.73910000000,3.75E-26
25.82080000000,89.73890000000,4.53E-26
25.81870000000,89.73870000000,4.39E-26
25.81690000000,89.73840000000,1.93E-25
25.81520000000,89.73820000000,3.11E-25
25.81360000000,89.73780000000,4.27E-25
25.81200000000,89.73730000000,1.84E-25
25.81040000000,89.73670000000,1.32E-25
25.80870000000,89.73610000000,9.93E-26
25.80710000000,89.73520000000,7.19E-26
25.80550000000,89.73440000000,1.90E-26
25.80380000000,89.73350000000,2.13E-26
25.80180000000,89.73290000000,1.75E-25
25.79970000000,89.73250000000,1.54E-25
25.79770000000,89.73250000000,1.88E-26
25.79390000000,89.73330000000,3.92E-09
25.79240000000,89.73390000000,8.88E-09
25.79100000000,89.73460000000,1.13E-09
25.78960000000,89.73520000000,4.84E-10
25.78830000000,89.73580000000,3.46E-09
25.78700000000,89.73630000000,4.84E-09
25.78560000000,89.73680000000,1.67E-09
25.78410000000,89.73720000000,2.67E-09
25.78270000000,89.73740000000,5.19E-10
25.78140000000,89.73750000000,3.69E-10
25.78010000000,89.73730000000,3.06E-09
25.77880000000,89.73690000000,3.52E-09
25.77750000000,89.73610000000,4.88E-09
25.77620000000,89.73520000000,6.58E-09
25.77490000000,89.73420000000,2.96E-09
25.77350000000,89.73320000000,1.28E-09
25.77210000000,89.73230000000,9.26E-09
25.77060000000,89.73160000000,6.85E-09
25.76900000000,89.73110000000,3.89E-09
25.76750000000,89.73080000000,1.19E-10
25.76610000000,89.73050000000,7.06E-09
25.76470000000,89.73010000000,5.41E-10
25.76340000000,89.72960000000,5.70E-09
25.76220000000,89.72910000000,4.27E-09
25.76100000000,89.72850000000,5.92E-09
25.75970000000,89.72780000000,6.07E-09
25.75850000000,89.72710000000,1.68E-10
25.75720000000,89.72630000000,5.79E-09
25.75580000000,89.72520000000,2.79E-09
25.75280000000,89.72260000000,1.68E-25
25.75110000000,89.72130000000,2.45E-25
25.74940000000,89.72040000000,5.75E-25
25.74760000000,89.71990000000,5.38E-25
25.74570000000,89.71940000000,2.84E-25
25.74360000000,89.71850000000,2.82E-25
25.74130000000,89.71700000000,7.09E-26
25.73940000000,89.71510000000,2.00E-26
25.73800000000,89.71300000000,1.98E-26
25.73700000000,89.71080000000,1.79E-25
25.73570000000,89.70830000000,3.99E-26
25.73360000000,89.70580000000,1.24E-25
25.73060000000,89.70350000000,2.05E-26
25.72740000000,89.70170000000,1.05E-25
25.72450000000,89.70080000000,1.64E-25
25.72230000000,89.70060000000,1.20E-25
25.72050000000,89.70080000000,1.14E-25
25.71890000000,89.70100000000,7.01E-26
25.71740000000,89.70110000000,6.45E-26
25.71600000000,89.70110000000,6.31E-25
25.71440000000,89.70120000000,1.15E-24
25.71290000000,89.70140000000,8.60E-25
25.71150000000,89.70160000000,5.75E-25
25.71020000000,89.70160000000,5.26E-25
25.70900000000,89.70150000000,8.78E-25
25.70770000000,89.70100000000,9.55E-25
25.70620000000,89.70050000000,6.52E-25
25.70460000000,89.69980000000,2.71E-25
25.70290000000,89.69920000000,3.82E-26
25.70120000000,89.69890000000,2.72E-26
25.69960000000,89.69860000000,6.78E-26
25.69820000000,89.69820000000,1.16E-25
25.69690000000,89.69750000000,1.32E-25
25.69530000000,89.69650000000,3.29E-26
25.69330000000,89.69540000000,2.01E-26
25.69080000000,89.69450000000,4.50E-26
25.68790000000,89.69400000000,8.08E-26
25.68510000000,89.69390000000,1.48E-25
25.68270000000,89.69430000000,3.54E-25
25.68090000000,89.69490000000,6.01E-25
25.67940000000,89.69540000000,3.56E-25
25.67780000000,89.69560000000,1.77E-25
25.67590000000,89.69570000000,1.12E-25
25.67360000000,89.69580000000,1.74E-26
25.67120000000,89.69630000000,6.63E-26
25.66870000000,89.69720000000,3.02E-25
25.66640000000,89.69810000000,4.13E-25
25.66420000000,89.69880000000,8.40E-26
25.66220000000,89.69920000000,7.17E-26
25.65810000000,89.69960000000,2.84E-10
25.65610000000,89.69960000000,5.32E-09
25.65390000000,89.69950000000,1.57E-09
25.65170000000,89.69910000000,5.30E-09
25.64930000000,89.69860000000,2.59E-09
25.64700000000,89.69790000000,2.62E-09
25.64470000000,89.69710000000,2.83E-09
25.64240000000,89.69640000000,1.56E-08
25.64030000000,89.69570000000,4.49E-09
25.63840000000,89.69510000000,2.00E-08
25.63660000000,89.69470000000,4.18E-09
25.63500000000,89.69430000000,5.51E-09
25.63360000000,89.69390000000,1.45E-10
25.63210000000,89.69360000000,2.79E-09
25.63070000000,89.69330000000,1.88E-09
25.62930000000,89.69300000000,1.50E-08
25.62770000000,89.69270000000,1.54E-08
25.62600000000,89.69250000000,1.96E-08
25.62410000000,89.69220000000,7.06E-09
25.62180000000,89.69200000000,3.88E-09
25.61950000000,89.69180000000,8.12E-08
25.61700000000,89.69160000000,1.13E-10
25.61460000000,89.69140000000,3.12E-08
25.61220000000,89.69120000000,3.84E-08
25.61000000000,89.69110000000,2.36E-08
25.60790000000,89.69100000000,1.32E-09
25.60620000000,89.69090000000,9.26E-08
25.60470000000,89.69060000000,9.12E-09
25.60350000000,89.69020000000,8.25E-09
25.60230000000,89.68970000000,0
25.60120000000,89.68890000000,4.13E-08
25.59990000000,89.68790000000,1.10E-08
25.59850000000,89.68670000000,8.35E-08
25.59690000000,89.68550000000,2.05E-07
25.59500000000,89.68430000000,4.33E-07
25.59290000000,89.68330000000,1.22E-07
25.59050000000,89.68270000000,8.50E-10
25.58810000000,89.68250000000,1.26E-07
25.58580000000,89.68250000000,4.59E-07
25.58380000000,89.68270000000,3.93E-07
25.58210000000,89.68290000000,1.65E-07
25.58070000000,89.68310000000,3.85E-07
25.57930000000,89.68320000000,7.34E-08
25.57780000000,89.68320000000,6.51E-08
25.57620000000,89.68320000000,4.12E-07
25.57460000000,89.68320000000,2.44E-07
25.57290000000,89.68320000000,3.89E-07
25.57110000000,89.68330000000,7.02E-07
25.56930000000,89.68330000000,4.16E-07
25.56760000000,89.68340000000,1.50E-06
25.56580000000,89.68330000000,1.54E-06
25.56420000000,89.68310000000,2.69E-07
25.56260000000,89.68280000000,7.09E-07
25.56110000000,89.68230000000,2.61E-06
25.55970000000,89.68180000000,1.45E-07
25.55840000000,89.68110000000,1.78E-07
25.55710000000,89.68030000000,5.78E-07
25.55580000000,89.67930000000,3.74E-06
25.55450000000,89.67820000000,1.92E-06
25.55310000000,89.67710000000,4.48E-06
25.55170000000,89.67610000000,2.12E-06
25.55020000000,89.67520000000,3.26E-06
25.54870000000,89.67440000000,5.13E-07
25.54710000000,89.67350000000,6.65E-07
25.54550000000,89.67240000000,2.04E-06
25.54390000000,89.67120000000,1.44E-06
25.54250000000,89.66970000000,1.98E-06
25.54120000000,89.66790000000,3.41E-06
25.53990000000,89.66610000000,1.67E-06
25.53840000000,89.66430000000,2.07E-07
25.53680000000,89.66270000000,9.25E-08
25.53500000000,89.66110000000,1.29E-08
25.53300000000,89.65930000000,3.92E-09
25.53080000000,89.65750000000,2.38E-07
25.52830000000,89.65590000000,8.57E-08
25.52560000000,89.65490000000,7.65E-07
25.52280000000,89.65460000000,1.87E-07
25.52020000000,89.65450000000,3.73E-07
25.51760000000,89.65460000000,7.44E-07
25.51500000000,89.65450000000,2.70E-07
25.51260000000,89.65430000000,2.04E-06
25.51030000000,89.65410000000,6.53E-06
25.50590000000,89.65310000000,6.01E-26
25.50390000000,89.65220000000,1.11E-25
25.50180000000,89.65100000000,5.90E-26
25.49960000000,89.64960000000,5.09E-26
25.49750000000,89.64820000000,1.31E-25
25.49530000000,89.64680000000,6.57E-26
25.49300000000,89.64560000000,3.05E-26
25.49050000000,89.64450000000,1.45E-26
25.48790000000,89.64360000000,5.33E-26
25.48530000000,89.64300000000,1.22E-25
25.48280000000,89.64270000000,7.85E-26
25.48040000000,89.64260000000,1.37E-25
25.47810000000,89.64270000000,4.04E-25
25.47580000000,89.64290000000,4.94E-25
25.47340000000,89.64330000000,7.57E-25
25.47110000000,89.64380000000,1.62E-24
25.46900000000,89.64430000000,1.82E-24
25.46710000000,89.64490000000,1.30E-24
25.46530000000,89.64540000000,1.29E-24
25.46340000000,89.64590000000,1.44E-24
25.46140000000,89.64620000000,8.37E-25
25.45940000000,89.64640000000,2.86E-25
25.45750000000,89.64630000000,4.69E-25
25.45570000000,89.64600000000,5.05E-25
25.45380000000,89.64540000000,7.32E-25
25.45180000000,89.64450000000,1.33E-24
25.44970000000,89.64330000000,1.51E-24
25.44760000000,89.64180000000,7.92E-25
25.44540000000,89.64010000000,2.57E-25
25.44330000000,89.63840000000,1.44E-25
25.44100000000,89.63660000000,1.57E-26
25.43840000000,89.63480000000,2.82E-26
25.43560000000,89.63320000000,3.86E-26
25.43250000000,89.63190000000,2.11E-26
25.42920000000,89.63090000000,1.14E-25
25.42580000000,89.63020000000,1.74E-25
25.42250000000,89.62970000000,7.09E-26
25.41910000000,89.62920000000,2.70E-26
25.41560000000,89.62880000000,2.46E-26
25.41200000000,89.62860000000,2.75E-26
25.40810000000,89.62890000000,8.71E-27
25.40430000000,89.62960000000,9.37E-27
25.40060000000,89.63080000000,2.83E-26
25.39750000000,89.63220000000,2.22E-25
25.39480000000,89.63340000000,9.49E-25
25.39240000000,89.63410000000,1.31E-24
25.39000000000,89.63390000000,8.37E-25
25.38730000000,89.63280000000,8.82E-25
25.38410000000,89.63150000000,1.26E-24
25.38050000000,89.63060000000,1.99E-24
25.37690000000,89.63020000000,2.03E-24
25.37340000000,89.63010000000,2.23E-24
25.37020000000,89.63000000000,1.99E-24
25.36730000000,89.62970000000,1.92E-24
25.36480000000,89.62900000000,2.10E-24
25.36240000000,89.62800000000,1.72E-24
25.36020000000,89.62680000000,8.92E-25
25.35790000000,89.62550000000,4.88E-25
25.35570000000,89.62450000000,6.03E-25
25.35350000000,89.62360000000,9.43E-25
25.35140000000,89.62250000000,1.13E-24
25.34930000000,89.62070000000,7.57E-25
25.34680000000,89.61830000000,2.45E-25
25.34360000000,89.61580000000,2.16E-25
25.33950000000,89.61370000000,7.79E-25
25.33480000000,89.61250000000,1.69E-24
25.32980000000,89.61230000000,2.25E-24
25.32510000000,89.61340000000,2.07E-24
25.32120000000,89.61560000000,2.02E-24
25.31800000000,89.61800000000,5.89E-24
25.31560000000,89.61990000000,1.38E-23
25.31340000000,89.62100000000,9.77E-24
25.31110000000,89.62170000000,7.08E-24
25.30830000000,89.62220000000,1.03E-23
25.30520000000,89.62260000000,5.41E-24
25.30230000000,89.62270000000,1.11E-23
25.30040000000,89.62230000000,1.18E-23
25.29920000000,89.62130000000,1.27E-23
25.29790000000,89.61980000000,6.23E-24
25.29590000000,89.61820000000,3.34E-24
25.29320000000,89.61670000000,1.62E-24
25.29000000000,89.61540000000,1.16E-24
25.28680000000,89.61450000000,5.95E-25
25.28380000000,89.61400000000,2.35E-26
25.28080000000,89.61380000000,3.96E-26
25.27780000000,89.61390000000,1.07E-25
25.27470000000,89.61420000000,1.72E-25
25.27160000000,89.61470000000,3.95E-25
25.26870000000,89.61510000000,5.09E-25
25.26580000000,89.61540000000,2.07E-25
25.26300000000,89.61530000000,3.46E-24
25.26010000000,89.61450000000,5.84E-24
25.25720000000,89.61310000000,8.95E-24
25.25450000000,89.61130000000,1.28E-24
25.25230000000,89.60960000000,1.12E-24
25.25050000000,89.60770000000,2.50E-24
25.24900000000,89.60560000000,1.86E-24
25.24720000000,89.60280000000,1.06E-24
25.24510000000,89.59950000000,9.61E-25
25.24230000000,89.59630000000,4.00E-25
25.23860000000,89.59380000000,1.02E-25
25.23450000000,89.59230000000,4.58E-26
25.23030000000,89.59130000000,4.62E-26
25.22640000000,89.59040000000,6.40E-26
25.22270000000,89.58950000000,1.97E-26
25.21900000000,89.58850000000,1.47E-25
25.21500000000,89.58770000000,3.62E-25
25.21080000000,89.58730000000,3.79E-25
25.20650000000,89.58750000000,1.76E-25
25.20230000000,89.58850000000,3.27E-25
25.19850000000,89.59010000000,4.42E-25
25.19490000000,89.59190000000,1.94E-25
25.19140000000,89.59350000000,4.91E-26
25.18780000000,89.59450000000,1.86E-25
25.18430000000,89.59490000000,2.39E-25
25.18100000000,89.59490000000,9.29E-26
25.17780000000,89.59430000000,1.84E-25
25.17450000000,89.59340000000,3.60E-25
25.17120000000,89.59230000000,2.66E-25
25.16760000000,89.59120000000,5.55E-26
25.16360000000,89.59040000000,1.36E-25
25.15920000000,89.59000000000,1.64E-25
25.15460000000,89.59030000000,3.14E-25
25.15020000000,89.59110000000,6.15E-25
25.14630000000,89.59250000000,1.52E-24
25.14310000000,89.59420000000,2.14E-24
25.14020000000,89.59570000000,1.31E-24
25.13740000000,89.59690000000,1.07E-24
25.13450000000,89.59760000000,1.37E-24
25.13170000000,89.59780000000,1.77E-25
25.12920000000,89.59760000000,1.16E-24
25.12700000000,89.59710000000,1.15E-24
25.12490000000,89.59620000000,1.07E-24
25.12270000000,89.59490000000,1.24E-24
25.12010000000,89.59350000000,7.75E-25
25.11720000000,89.59210000000,3.69E-25
25.11400000000,89.59120000000,3.09E-25
25.11060000000,89.59070000000,1.43E-25
25.10740000000,89.59060000000,8.52E-26
25.10440000000,89.59050000000,1.81E-25
25.10150000000,89.59030000000,2.89E-25
25.09870000000,89.59000000000,2.79E-25
25.09580000000,89.58960000000,2.26E-25
25.09280000000,89.58900000000,8.91E-26
25.08970000000,89.58850000000,6.12E-26
25.08670000000,89.58800000000,5.31E-26
25.08360000000,89.58760000000,3.16E-26
25.08050000000,89.58720000000,1.60E-25
25.07720000000,89.58690000000,1.51E-26
25.07380000000,89.58660000000,7.09E-27
25.07030000000,89.58640000000,8.46E-27
25.06680000000,89.58650000000,2.43E-26
25.06340000000,89.58670000000,4.17E-26
25.06010000000,89.58690000000,8.38E-26
25.05700000000,89.58690000000,6.52E-26
25.05410000000,89.58660000000,4.28E-27
25.05120000000,89.58600000000,2.37E-26
25.04840000000,89.58520000000,5.66E-26
25.04580000000,89.58430000000,3.24E-26
25.04310000000,89.58320000000,3.63E-27
25.04020000000,89.58190000000,4.18E-27
25.03710000000,89.58040000000,1.00E-26
25.03380000000,89.57890000000,1.09E-25
25.03020000000,89.57750000000,1.37E-25
25.02640000000,89.57630000000,1.07E-25
25.02260000000,89.57520000000,5.14E-26
25.01890000000,89.57430000000,6.93E-26
25.01530000000,89.57340000000,1.14E-26
25.01170000000,89.57230000000,1.69E-25
25.00780000000,89.57130000000,6.14E-25
25.00380000000,89.57010000000,8.88E-25
24.99970000000,89.56920000000,5.27E-25
24.99560000000,89.56860000000,2.16E-25
24.99160000000,89.56830000000,1.79E-25
24.98790000000,89.56790000000,7.28E-26
24.98430000000,89.56720000000,3.32E-26
24.98060000000,89.56620000000,2.01E-25
24.97670000000,89.56500000000,5.30E-25
24.97230000000,89.56390000000,1.63E-25
24.96760000000,89.56320000000,7.73E-26
24.96260000000,89.56310000000,7.94E-26
24.95750000000,89.56380000000,2.74E-25
24.95240000000,89.56520000000,2.01E-25
24.94740000000,89.56710000000,3.41E-26
24.94250000000,89.56940000000,4.05E-26
24.93310000000,89.57340000000,0.016741728
24.92870000000,89.57460000000,0.049425525
24.92420000000,89.57510000000,0.083337471
24.91940000000,89.57540000000,0.102893497
24.91410000000,89.57580000000,0.090760251
24.90850000000,89.57670000000,0.072345411
24.90280000000,89.57790000000,0.078321157
24.89730000000,89.57940000000,0.092077095
24.89190000000,89.58090000000,0.096091195
24.88660000000,89.58200000000,0.077873772
24.88100000000,89.58230000000,0.065324725
24.87480000000,89.58210000000,0.067072298
24.86800000000,89.58170000000,0.066183195
24.86070000000,89.58190000000,0.066657423
24.85310000000,89.58280000000,0.067859924
24.84590000000,89.58460000000,0.069375717
24.83960000000,89.58720000000,0.077113932
24.83430000000,89.59010000000,0.096383264
24.82990000000,89.59280000000,0.119546787
24.82580000000,89.59470000000,0.124472676
24.82150000000,89.59580000000,0.106967454
24.81700000000,89.59670000000,0.087579899
24.81210000000,89.59790000000,0.07913007
24.80720000000,89.59940000000,0.079668568
24.80250000000,89.60140000000,0.084047703
24.79810000000,89.60340000000,0.091193791
24.79410000000,89.60540000000,0.100414998
24.79030000000,89.60720000000,0.1080475
24.78650000000,89.60880000000,0.109302624
24.78250000000,89.61020000000,0.104380995
24.77830000000,89.61150000000,0.097797712
24.77390000000,89.61270000000,0.092705166
24.76930000000,89.61380000000,0.088792683
24.76470000000,89.61470000000,0.083667411
24.75980000000,89.61550000000,0.076008887
24.75470000000,89.61630000000,0.067725853
24.74930000000,89.61720000000,0.062162969
24.74380000000,89.61850000000,0.061010019
24.73810000000,89.62010000000,0.063292525
24.73240000000,89.62190000000,0.066661008
24.72680000000,89.62380000000,0.06940577
24.72130000000,89.62560000000,0.070637926
24.71580000000,89.62730000000,0.069913934
24.71030000000,89.62890000000,0.066978329
24.70470000000,89.63030000000,0.062939591
24.69900000000,89.63190000000,0.060026659
24.69340000000,89.63350000000,0.056600037
24.68800000000,89.63550000000,0.053197615
24.68280000000,89.63770000000,0.048786889
24.67810000000,89.64040000000,0.047617694
24.67400000000,89.64340000000,0.044042215
24.67030000000,89.64660000000,0.044130923
24.66690000000,89.64970000000,0.061003966
24.66370000000,89.65270000000,0.081718937
24.66060000000,89.65540000000,0.097079817
24.65750000000,89.65770000000,0.099200858
24.65420000000,89.65980000000,0.117839763
24.65050000000,89.66150000000,0.13807082
24.64610000000,89.66300000000,0.130018343
24.64120000000,89.66410000000,0.126181971
24.63590000000,89.66450000000,0.116736235
24.63050000000,89.66380000000,0.086940544
24.62470000000,89.66220000000,0.058161811
24.61830000000,89.66040000000,0.041464896
24.61110000000,89.65880000000,0.033406245
24.60340000000,89.65800000000,0.028721874
24.59590000000,89.65830000000,0.025363446
24.58970000000,89.65970000000,0.02602195
24.58490000000,89.66210000000,0.034243815
24.58100000000,89.66460000000,0.046736009
24.57680000000,89.66680000000,0.052457985
24.57180000000,89.66860000000,0.048509313
24.56600000000,89.67060000000,0.043779856
24.55970000000,89.67330000000,0.045643339
24.55320000000,89.67650000000,0.053240006
24.54610000000,89.67970000000,0.058831788
24.53810000000,89.68220000000,0.055965766
24.52880000000,89.68420000000,0.047160708
24.51880000000,89.68600000000,0.039027978
24.50860000000,89.68820000000,0.033495923
24.49890000000,89.69120000000,0.029436649
24.49050000000,89.69500000000,0.026419486
24.48420000000,89.69960000000,0.027733845
24.48020000000,89.70430000000,0.03890345
24.47750000000,89.70860000000,0.063223413
24.47510000000,89.71220000000,0.091798369
24.47240000000,89.71500000000,0.106455571
24.46910000000,89.71720000000,0.102698559
24.46540000000,89.71880000000,0.09053285
24.46130000000,89.72000000000,0.073039136
24.45690000000,89.72040000000,0.046636996
24.45200000000,89.72000000000,0.015674792
24.44110000000,89.71780000000,6.50E-26
24.43500000000,89.71700000000,7.47E-26
24.42890000000,89.71660000000,2.32E-26
24.42270000000,89.71640000000,2.29E-25
24.41620000000,89.71620000000,6.26E-25
24.40940000000,89.71590000000,4.00E-25
24.40210000000,89.71610000000,1.17E-25
24.39470000000,89.71720000000,2.44E-25
24.38740000000,89.71890000000,3.67E-25
24.38010000000,89.72080000000,3.42E-25
24.37280000000,89.72220000000,1.44E-23
24.36520000000,89.72260000000,1.07E-23
24.35750000000,89.72230000000,2.33E-24
24.34990000000,89.72120000000,2.11E-24
24.34240000000,89.71970000000,7.40E-25
24.33490000000,89.71800000000,1.34E-24
24.32750000000,89.71640000000,3.16E-24
24.32030000000,89.71510000000,3.21E-24
24.31340000000,89.71390000000,1.88E-24
24.30660000000,89.71280000000,1.00E-24
24.30000000000,89.71160000000,5.01E-25
24.29350000000,89.71040000000,1.75E-25
24.28720000000,89.70920000000,1.85E-25
24.28080000000,89.70800000000,1.17E-25
24.27420000000,89.70670000000,8.36E-26
24.26740000000,89.70540000000,1.65E-26
24.26030000000,89.70420000000,1.23E-26
24.25310000000,89.70370000000,8.53E-27
24.24630000000,89.70410000000,1.12E-25
24.24010000000,89.70510000000,1.59E-25
24.23440000000,89.70550000000,1.33E-25
24.22880000000,89.70440000000,5.09E-26
24.22280000000,89.70170000000,6.43E-26
24.21600000000,89.69830000000,2.71E-26
24.19270000000,89.69370000000,0.002595628
24.18640000000,89.69470000000,0.009596684
24.18170000000,89.69640000000,0.027249492
24.17800000000,89.69770000000,0.053362683
24.17440000000,89.69750000000,0.062361053
24.17000000000,89.69550000000,0.049094689
24.16500000000,89.69190000000,0.034177019
24.15930000000,89.68740000000,0.024115775
24.15290000000,89.68250000000,0.018210402
24.14550000000,89.67810000000,0.016148075
24.13720000000,89.67490000000,0.01781236
24.12840000000,89.67320000000,0.022814961
24.11970000000,89.67300000000,0.029188683
24.11150000000,89.67380000000,0.035793719
